# pipeline=quark_stars
# product=mass_radius
# m_sigma_mev=600.000000
# units=central pressure is npemu-dimensionless; central energy density in MeV^4/GeV fm^-3; radius in km; mass in Msun
# B0_mev4=5.806289137042e+08
# B0_gev_fm3=7.556822962283e-02
# B_mev4=0.000000000000e+00
# B_gev_fm3=0.000000000000e+00
# B_1_4_mev=0.000000
# columns=Pc_dimless epsilon_c_mev4 epsilon_c_gev_fm-3 radius_km mass_msun stable_flag
2.463e-08 5.234e+06 6.812e-04 4.360e+00 2.112e-04 1.000e+00
2.660e-08 5.479e+06 7.131e-04 1.277e+01 5.405e-03 1.000e+00
2.873e-08 5.741e+06 7.472e-04 1.738e+01 1.388e-02 1.000e+00
3.103e-08 6.020e+06 7.836e-04 2.087e+01 2.450e-02 1.000e+00
3.351e-08 6.317e+06 8.222e-04 2.375e+01 3.681e-02 1.000e+00
3.619e-08 6.633e+06 8.633e-04 2.620e+01 5.041e-02 1.000e+00
3.909e-08 6.968e+06 9.068e-04 2.835e+01 6.516e-02 1.000e+00
4.221e-08 7.323e+06 9.531e-04 3.025e+01 8.078e-02 1.000e+00
4.559e-08 7.699e+06 1.002e-03 3.196e+01 9.725e-02 1.000e+00
4.924e-08 8.096e+06 1.054e-03 3.349e+01 1.143e-01 1.000e+00
5.318e-08 8.516e+06 1.108e-03 3.489e+01 1.319e-01 1.000e+00
5.743e-08 8.959e+06 1.166e-03 3.615e+01 1.499e-01 1.000e+00
6.203e-08 9.425e+06 1.227e-03 3.731e+01 1.684e-01 1.000e+00
6.699e-08 9.915e+06 1.290e-03 3.837e+01 1.873e-01 1.000e+00
7.235e-08 1.043e+07 1.357e-03 3.934e+01 2.063e-01 1.000e+00
7.813e-08 1.097e+07 1.428e-03 4.024e+01 2.258e-01 1.000e+00
8.439e-08 1.154e+07 1.501e-03 4.106e+01 2.453e-01 1.000e+00
9.114e-08 1.213e+07 1.578e-03 4.182e+01 2.652e-01 1.000e+00
9.843e-08 1.275e+07 1.659e-03 4.251e+01 2.850e-01 1.000e+00
1.063e-07 1.340e+07 1.744e-03 4.316e+01 3.053e-01 1.000e+00
1.148e-07 1.408e+07 1.832e-03 4.375e+01 3.255e-01 1.000e+00
1.240e-07 1.480e+07 1.926e-03 4.429e+01 3.458e-01 1.000e+00
1.339e-07 1.555e+07 2.024e-03 4.479e+01 3.663e-01 1.000e+00
1.446e-07 1.635e+07 2.128e-03 4.525e+01 3.869e-01 1.000e+00
1.562e-07 1.720e+07 2.239e-03 4.567e+01 4.075e-01 1.000e+00
1.687e-07 1.810e+07 2.355e-03 4.605e+01 4.281e-01 1.000e+00
1.822e-07 1.904e+07 2.478e-03 4.639e+01 4.486e-01 1.000e+00
1.968e-07 2.004e+07 2.608e-03 4.670e+01 4.691e-01 1.000e+00
2.125e-07 2.109e+07 2.745e-03 4.697e+01 4.893e-01 1.000e+00
2.295e-07 2.220e+07 2.889e-03 4.721e+01 5.096e-01 1.000e+00
2.479e-07 2.336e+07 3.040e-03 4.742e+01 5.297e-01 1.000e+00
2.677e-07 2.459e+07 3.201e-03 4.760e+01 5.496e-01 1.000e+00
2.891e-07 2.589e+07 3.369e-03 4.776e+01 5.695e-01 1.000e+00
3.122e-07 2.726e+07 3.548e-03 4.788e+01 5.891e-01 1.000e+00
3.372e-07 2.871e+07 3.737e-03 4.798e+01 6.085e-01 1.000e+00
3.642e-07 3.024e+07 3.936e-03 4.806e+01 6.278e-01 1.000e+00
3.933e-07 3.186e+07 4.146e-03 4.812e+01 6.470e-01 1.000e+00
4.248e-07 3.356e+07 4.368e-03 4.815e+01 6.658e-01 1.000e+00
4.588e-07 3.537e+07 4.603e-03 4.816e+01 6.844e-01 1.000e+00
4.955e-07 3.728e+07 4.851e-03 4.815e+01 7.028e-01 1.000e+00
5.351e-07 3.929e+07 5.114e-03 4.811e+01 7.207e-01 1.000e+00
5.779e-07 4.143e+07 5.392e-03 4.806e+01 7.384e-01 1.000e+00
6.241e-07 4.369e+07 5.686e-03 4.800e+01 7.560e-01 1.000e+00
6.741e-07 4.608e+07 5.997e-03 4.791e+01 7.731e-01 1.000e+00
7.280e-07 4.861e+07 6.326e-03 4.781e+01 7.900e-01 1.000e+00
7.862e-07 5.129e+07 6.675e-03 4.769e+01 8.065e-01 1.000e+00
8.491e-07 5.413e+07 7.045e-03 4.755e+01 8.225e-01 1.000e+00
9.171e-07 5.714e+07 7.436e-03 4.740e+01 8.383e-01 1.000e+00
9.904e-07 6.033e+07 7.852e-03 4.724e+01 8.538e-01 1.000e+00
1.070e-06 6.371e+07 8.292e-03 4.706e+01 8.687e-01 1.000e+00
1.155e-06 6.730e+07 8.759e-03 4.687e+01 8.833e-01 1.000e+00
1.248e-06 7.112e+07 9.256e-03 4.667e+01 8.975e-01 1.000e+00
1.347e-06 7.516e+07 9.783e-03 4.645e+01 9.112e-01 1.000e+00
1.455e-06 7.947e+07 1.034e-02 4.622e+01 9.244e-01 1.000e+00
1.572e-06 8.404e+07 1.094e-02 4.598e+01 9.371e-01 1.000e+00
1.697e-06 8.891e+07 1.157e-02 4.574e+01 9.496e-01 1.000e+00
1.833e-06 9.408e+07 1.224e-02 4.548e+01 9.614e-01 1.000e+00
1.980e-06 9.960e+07 1.296e-02 4.521e+01 9.726e-01 1.000e+00
2.138e-06 1.055e+08 1.373e-02 4.493e+01 9.833e-01 1.000e+00
2.309e-06 1.117e+08 1.454e-02 4.464e+01 9.935e-01 1.000e+00
2.494e-06 1.184e+08 1.541e-02 4.435e+01 1.003e+00 1.000e+00
2.694e-06 1.255e+08 1.634e-02 4.405e+01 1.012e+00 1.000e+00
2.909e-06 1.332e+08 1.733e-02 4.374e+01 1.021e+00 1.000e+00
3.142e-06 1.413e+08 1.839e-02 4.342e+01 1.028e+00 1.000e+00
3.393e-06 1.501e+08 1.953e-02 4.310e+01 1.036e+00 1.000e+00
3.665e-06 1.594e+08 2.075e-02 4.277e+01 1.042e+00 1.000e+00
3.958e-06 1.694e+08 2.205e-02 4.244e+01 1.048e+00 1.000e+00
4.274e-06 1.802e+08 2.345e-02 4.211e+01 1.054e+00 1.000e+00
4.616e-06 1.918e+08 2.496e-02 4.177e+01 1.058e+00 1.000e+00
4.986e-06 2.042e+08 2.658e-02 4.142e+01 1.062e+00 1.000e+00
5.385e-06 2.176e+08 2.832e-02 4.108e+01 1.065e+00 1.000e+00
5.815e-06 2.321e+08 3.021e-02 4.073e+01 1.068e+00 1.000e+00
6.281e-06 2.478e+08 3.225e-02 4.038e+01 1.069e+00 1.000e+00
6.783e-06 2.647e+08 3.445e-02 4.003e+01 1.070e+00 1.000e+00
7.326e-06 2.832e+08 3.685e-02 3.969e+01 1.071e+00 1.000e+00
7.912e-06 3.032e+08 3.946e-02 3.934e+01 1.070e+00 1.000e+00
8.545e-06 3.249e+08 4.228e-02 3.899e+01 1.069e+00 1.000e+00
9.228e-06 3.485e+08 4.536e-02 3.865e+01 1.067e+00 1.000e+00
9.966e-06 3.742e+08 4.870e-02 3.831e+01 1.064e+00 1.000e+00
1.076e-05 4.020e+08 5.232e-02 3.798e+01 1.061e+00 1.000e+00
1.162e-05 4.323e+08 5.626e-02 3.764e+01 1.056e+00 1.000e+00
1.255e-05 4.651e+08 6.053e-02 3.732e+01 1.051e+00 1.000e+00
1.356e-05 5.008e+08 6.517e-02 3.700e+01 1.046e+00 1.000e+00
1.464e-05 5.395e+08 7.021e-02 3.668e+01 1.040e+00 1.000e+00
1.582e-05 5.814e+08 7.567e-02 3.637e+01 1.033e+00 1.000e+00
1.708e-05 6.268e+08 8.158e-02 3.607e+01 1.026e+00 1.000e+00
1.845e-05 6.760e+08 8.798e-02 3.577e+01 1.018e+00 1.000e+00
1.992e-05 7.291e+08 9.489e-02 3.548e+01 1.010e+00 1.000e+00
2.152e-05 7.864e+08 1.024e-01 3.520e+01 1.002e+00 1.000e+00
2.324e-05 8.481e+08 1.104e-01 3.493e+01 9.929e-01 1.000e+00
2.510e-05 9.142e+08 1.190e-01 3.466e+01 9.838e-01 1.000e+00
2.711e-05 9.850e+08 1.282e-01 3.439e+01 9.743e-01 1.000e+00
2.927e-05 1.060e+09 1.380e-01 3.414e+01 9.647e-01 1.000e+00
3.162e-05 1.140e+09 1.484e-01 3.388e+01 9.548e-01 1.000e+00
3.414e-05 1.224e+09 1.593e-01 3.364e+01 9.447e-01 1.000e+00
3.688e-05 1.311e+09 1.706e-01 3.339e+01 9.344e-01 1.000e+00
3.983e-05 1.401e+09 1.823e-01 3.314e+01 9.238e-01 1.000e+00
4.301e-05 1.492e+09 1.942e-01 3.289e+01 9.130e-01 1.000e+00
4.645e-05 1.582e+09 2.059e-01 3.264e+01 9.020e-01 1.000e+00
5.017e-05 1.669e+09 2.172e-01 3.237e+01 8.905e-01 1.000e+00
5.418e-05 1.748e+09 2.276e-01 3.209e+01 8.786e-01 1.000e+00
5.852e-05 1.816e+09 2.363e-01 3.178e+01 8.660e-01 1.000e+00
6.320e-05 1.867e+09 2.429e-01 3.142e+01 8.526e-01 1.000e+00
6.826e-05 1.914e+09 2.491e-01 3.101e+01 8.385e-01 1.000e+00
7.372e-05 1.959e+09 2.550e-01 3.055e+01 8.240e-01 1.000e+00
7.961e-05 2.004e+09 2.609e-01 3.001e+01 8.092e-01 1.000e+00
8.598e-05 2.049e+09 2.666e-01 2.941e+01 7.948e-01 1.000e+00
9.286e-05 2.092e+09 2.723e-01 2.875e+01 7.810e-01 1.000e+00
1.003e-04 2.136e+09 2.780e-01 2.802e+01 7.684e-01 1.000e+00
1.083e-04 2.179e+09 2.836e-01 2.723e+01 7.575e-01 1.000e+00
1.170e-04 2.223e+09 2.893e-01 2.640e+01 7.489e-01 1.000e+00
1.263e-04 2.267e+09 2.951e-01 2.553e+01 7.430e-01 1.000e+00
1.364e-04 2.312e+09 3.009e-01 2.464e+01 7.402e-01 1.000e+00
1.474e-04 2.357e+09 3.068e-01 2.374e+01 7.409e-01 1.000e+00
1.591e-04 2.404e+09 3.128e-01 2.286e+01 7.452e-01 1.000e+00
1.719e-04 2.451e+09 3.190e-01 2.201e+01 7.533e-01 1.000e+00
1.856e-04 2.500e+09 3.254e-01 2.120e+01 7.652e-01 1.000e+00
2.005e-04 2.551e+09 3.320e-01 2.044e+01 7.807e-01 1.000e+00
2.165e-04 2.603e+09 3.388e-01 1.973e+01 7.997e-01 1.000e+00
2.338e-04 2.658e+09 3.459e-01 1.908e+01 8.220e-01 1.000e+00
2.525e-04 2.715e+09 3.534e-01 1.848e+01 8.473e-01 1.000e+00
2.727e-04 2.775e+09 3.612e-01 1.794e+01 8.755e-01 1.000e+00
2.946e-04 2.838e+09 3.693e-01 1.745e+01 9.062e-01 1.000e+00
3.181e-04 2.904e+09 3.779e-01 1.701e+01 9.392e-01 1.000e+00
3.436e-04 2.974e+09 3.870e-01 1.661e+01 9.741e-01 1.000e+00
3.711e-04 3.048e+09 3.967e-01 1.625e+01 1.011e+00 1.000e+00
4.008e-04 3.126e+09 4.069e-01 1.593e+01 1.049e+00 1.000e+00
4.328e-04 3.210e+09 4.177e-01 1.564e+01 1.088e+00 1.000e+00
4.674e-04 3.298e+09 4.293e-01 1.537e+01 1.129e+00 1.000e+00
5.048e-04 3.393e+09 4.416e-01 1.513e+01 1.170e+00 1.000e+00
5.452e-04 3.494e+09 4.548e-01 1.492e+01 1.211e+00 1.000e+00
5.888e-04 3.603e+09 4.689e-01 1.472e+01 1.252e+00 1.000e+00
6.360e-04 3.719e+09 4.840e-01 1.453e+01 1.293e+00 1.000e+00
6.868e-04 3.843e+09 5.002e-01 1.436e+01 1.334e+00 1.000e+00
7.418e-04 3.977e+09 5.175e-01 1.420e+01 1.374e+00 1.000e+00
8.011e-04 4.120e+09 5.362e-01 1.405e+01 1.413e+00 1.000e+00
8.652e-04 4.274e+09 5.562e-01 1.391e+01 1.451e+00 1.000e+00
9.344e-04 4.440e+09 5.778e-01 1.378e+01 1.487e+00 1.000e+00
1.009e-03 4.618e+09 6.010e-01 1.364e+01 1.522e+00 1.000e+00
1.090e-03 4.810e+09 6.260e-01 1.352e+01 1.556e+00 1.000e+00
1.177e-03 5.017e+09 6.529e-01 1.340e+01 1.587e+00 1.000e+00
1.271e-03 5.239e+09 6.819e-01 1.328e+01 1.617e+00 1.000e+00
1.373e-03 5.479e+09 7.131e-01 1.316e+01 1.644e+00 1.000e+00
1.483e-03 5.738e+09 7.468e-01 1.304e+01 1.669e+00 1.000e+00
1.601e-03 6.017e+09 7.832e-01 1.293e+01 1.692e+00 1.000e+00
1.730e-03 6.318e+09 8.223e-01 1.281e+01 1.713e+00 1.000e+00
1.868e-03 6.643e+09 8.646e-01 1.270e+01 1.731e+00 1.000e+00
2.017e-03 6.994e+09 9.102e-01 1.259e+01 1.747e+00 1.000e+00
2.179e-03 7.372e+09 9.595e-01 1.247e+01 1.761e+00 1.000e+00
2.353e-03 7.780e+09 1.013e+00 1.236e+01 1.772e+00 1.000e+00
2.541e-03 8.221e+09 1.070e+00 1.225e+01 1.781e+00 1.000e+00
2.745e-03 8.696e+09 1.132e+00 1.214e+01 1.788e+00 1.000e+00
2.964e-03 9.210e+09 1.199e+00 1.202e+01 1.793e+00 1.000e+00
3.201e-03 9.764e+09 1.271e+00 1.191e+01 1.796e+00 1.000e+00
3.457e-03 1.036e+10 1.349e+00 1.180e+01 1.797e+00 1.000e+00
3.734e-03 1.101e+10 1.433e+00 1.169e+01 1.797e+00 0.000e+00
4.033e-03 1.171e+10 1.523e+00 1.158e+01 1.794e+00 0.000e+00
4.355e-03 1.246e+10 1.622e+00 1.147e+01 1.790e+00 0.000e+00
4.704e-03 1.327e+10 1.727e+00 1.136e+01 1.784e+00 0.000e+00
5.080e-03 1.415e+10 1.842e+00 1.125e+01 1.777e+00 0.000e+00
5.486e-03 1.510e+10 1.965e+00 1.114e+01 1.768e+00 0.000e+00
5.925e-03 1.612e+10 2.098e+00 1.104e+01 1.759e+00 0.000e+00
6.399e-03 1.723e+10 2.242e+00 1.094e+01 1.748e+00 0.000e+00
6.911e-03 1.842e+10 2.398e+00 1.083e+01 1.736e+00 0.000e+00
7.464e-03 1.971e+10 2.566e+00 1.073e+01 1.723e+00 0.000e+00
8.061e-03 2.111e+10 2.747e+00 1.064e+01 1.710e+00 0.000e+00
8.706e-03 2.261e+10 2.943e+00 1.054e+01 1.695e+00 0.000e+00
9.403e-03 2.423e+10 3.154e+00 1.045e+01 1.680e+00 0.000e+00
1.015e-02 2.599e+10 3.382e+00 1.036e+01 1.665e+00 0.000e+00
1.097e-02 2.788e+10 3.629e+00 1.027e+01 1.649e+00 0.000e+00
1.184e-02 2.993e+10 3.895e+00 1.018e+01 1.633e+00 0.000e+00
1.279e-02 3.214e+10 4.183e+00 1.010e+01 1.616e+00 0.000e+00
1.382e-02 3.453e+10 4.493e+00 1.002e+01 1.599e+00 0.000e+00
1.492e-02 3.710e+10 4.829e+00 9.950e+00 1.582e+00 0.000e+00
1.611e-02 3.989e+10 5.191e+00 9.870e+00 1.565e+00 0.000e+00
1.740e-02 4.289e+10 5.582e+00 9.800e+00 1.548e+00 0.000e+00
1.880e-02 4.614e+10 6.005e+00 9.740e+00 1.530e+00 0.000e+00
2.030e-02 4.965e+10 6.461e+00 9.670e+00 1.513e+00 0.000e+00
2.192e-02 5.343e+10 6.954e+00 9.620e+00 1.496e+00 0.000e+00
2.368e-02 5.752e+10 7.486e+00 9.560e+00 1.479e+00 0.000e+00
2.557e-02 6.194e+10 8.061e+00 9.510e+00 1.463e+00 0.000e+00
2.762e-02 6.671e+10 8.682e+00 9.460e+00 1.446e+00 0.000e+00
2.983e-02 7.186e+10 9.352e+00 9.420e+00 1.430e+00 0.000e+00
